Time [s];T_cat [gradC];n_h2 [mol/s];n_ch4 [mol/s];n_h2_res [mol/s];m_DE [kg/h];Pel [W]
0;400.3;0.00701;0.00172;0.000054;0.0021249;651
2;400.6;0.00701;0.00173;0.000054;0.0019831;630
4;400.9;0.00701;0.00173;0.000054;0;574
6;401;0.00701;0.00173;0.000054;0;427
8;401.2;0.00701;0.00173;0.000054;0;350
10;401.2;0.00701;0.00173;0.000054;0;350
12;401.2;0.00701;0.00173;0.000054;0;350
14;401.2;0.00701;0.00173;0.000054;0;350
16;401.2;0.00701;0.00173;0.000054;0;476
18;401;0.00701;0.00172;0.000054;0;490
20;400.9;0.00701;0.00173;0.000054;0;490
22;400.8;0.00701;0.00173;0.000054;0;490
24;400.7;0.00701;0.00173;0.000054;0;490
26;400.5;0.00701;0.00173;0.000054;0;364
28;400.4;0.00701;0.00173;0.000054;0;350
30;400.3;0.00701;0.00173;0.000054;0;350
32;400.2;0.00701;0.00173;0.000054;0;378
34;400.4;0.00701;0.00172;0.000054;0;490
36;400.7;0.00701;0.00173;0.000054;0;490
38;401.1;0.00701;0.00172;0.000054;0.0001418;490
40;401.5;0.00701;0.00173;0.000054;0.0026473;490
42;401.8;0.00701;0.00173;0.000054;0.0020989;462
44;402.1;0.00701;0.00173;0.000054;0.0000756;350
46;402.3;0.00701;0.00173;0.000054;0.0010187;350
48;402.5;0.00701;0.00173;0.000054;0;350
50;402.6;0.00701;0.00173;0.000054;0;350
52;402.6;0.00701;0.00172;0.000054;0;434
54;402.6;0.00701;0.00172;0.000054;0;490
56;402.6;0.00701;0.00173;0.000054;0;490
58;402.5;0.00701;0.00173;0.000054;0;448
60;402.3;0.00701;0.00173;0.000054;0;420
62;402.2;0.00701;0.00173;0.000054;0;308
64;402;0.00701;0.00173;0.000054;0;224
66;401.9;0.00701;0.00173;0.000054;0;210
68;401.8;0.00701;0.00173;0.000054;0;210
70;401.6;0.00701;0.00173;0.000054;0;210
72;401.4;0.00701;0.00172;0.000054;0;196
74;401.3;0.00701;0.00173;0.000054;0;266
76;401.4;0.00701;0.00173;0.000054;0;329
78;401.6;0.00701;0.00173;0.000054;0;322
80;402;0.00701;0.00173;0.000054;0;329
82;402.4;0.00701;0.00173;0.000054;0;308
84;402.7;0.00701;0.00173;0.000054;0.0003025;259
86;403;0.00701;0.00173;0.000054;0.0002482;161
88;403.2;0.00701;0.00173;0.000054;0;175
90;403.4;0.00701;0.00172;0.000054;0.0000402;161
92;403.5;0.00701;0.00173;0.000054;0;161
94;403.5;0.00701;0.00173;0.000054;0;238
96;403.5;0.00701;0.00173;0.000054;0;287
98;403.5;0.00701;0.00173;0.000054;0;315
100;403.4;0.00701;0.00173;0.000054;0;280
102;403.2;0.00701;0.00173;0.000054;0;308
104;403.1;0.00701;0.00173;0.000054;0;196
106;402.9;0.00701;0.00172;0.000054;0;161
108;402.8;0.00701;0.00172;0.000054;0;140
110;402.7;0.00701;0.00173;0.000054;0;147
112;402.5;0.00701;0.00173;0.000054;0;147
114;402.4;0.00701;0.00173;0.000054;0;224
116;402.4;0.00701;0.00173;0.000054;0;301
118;402.6;0.00701;0.00173;0.000054;0;280
120;402.9;0.00701;0.00173;0.000054;0;301
122;403.3;0.00701;0.00173;0.000054;0.0006193;280
124;403.6;0.00701;0.00173;0.000054;0.0023636;196
126;404;0.00701;0.00173;0.000054;0.0014844;161
128;404.3;0.00701;0.00173;0.000054;0.0017302;140
130;404.5;0.00701;0.00173;0.000054;0.0004255;161
132;404.6;0.00701;0.00173;0.000054;0;210
134;404.7;0.00701;0.00173;0.000054;0;301
136;404.7;0.00701;0.00173;0.000054;0;280
138;404.7;0.00701;0.00173;0.000054;0;287
140;404.6;0.00701;0.00173;0.000054;0;294
142;404.4;0.00701;0.00173;0.000054;0;210
144;404.3;0.00701;0.00173;0.000054;0;175
146;404.1;0.00701;0.00173;0.000054;0;140
148;403.9;0.00701;0.00173;0.000054;0;175
150;403.9;0.00701;0.00173;0.000054;0;224
152;403.6;0.00701;0.00173;0.000054;0;322
154;403.4;0.00701;0.00173;0.000054;0;287
156;403.2;0.00701;0.00173;0.000054;0;315
158;403.1;0.00701;0.00173;0.000054;0;301
160;403;0.00701;0.00173;0.000054;0;224
162;403.2;0.00701;0.00173;0.000054;0;168
164;403.5;0.00701;0.00173;0.000054;0;168
166;403.8;0.00701;0.00173;0.000054;0;175
168;404.2;0.00701;0.00173;0.000054;0;168
170;404.5;0.00701;0.00173;0.000054;0;315
172;404.8;0.00701;0.00173;0.000054;0.0000449;315
174;405.1;0.00701;0.00173;0.000054;0.0002978;315
176;405.2;0.00701;0.00173;0.000054;0;315
178;405.2;0.00701;0.00173;0.000054;0;322
180;405.2;0.00701;0.00173;0.000054;0;189
182;405.2;0.00701;0.00173;0.000054;0;175
184;405.1;0.00701;0.00173;0.000054;0;189
186;405.1;0.00701;0.00173;0.000054;0;182
188;404.8;0.00701;0.00173;0.000054;0;196
190;404.7;0.00701;0.00173;0.000054;0;238
192;404.5;0.00701;0.00173;0.000054;0;350
194;404.3;0.00701;0.00173;0.000054;0;315
196;404;0.00701;0.00173;0.000054;0;350
198;403.9;0.00701;0.00173;0.000054;0;322
200;403.7;0.00701;0.00173;0.000054;0;280
202;403.5;0.00701;0.00173;0.000054;0;182
204;403.6;0.00701;0.00173;0.000054;0;189
206;404;0.00701;0.00173;0.000054;0;210
208;404.3;0.00701;0.00173;0.000054;0;189
210;404.7;0.00701;0.00173;0.000054;0;224
212;405;0.00701;0.00173;0.000054;0.000364;336
214;405.3;0.00701;0.00173;0.000054;0.0004325;350
216;405.6;0.00701;0.00173;0.000054;0.0005649;329
218;405.6;0.00701;0.00173;0.000054;0;336
220;405.7;0.00701;0.00173;0.000054;0;336
222;405.8;0.00701;0.00173;0.000054;0;196
224;405.7;0.00701;0.00173;0.000054;0;210
226;405.6;0.00701;0.00173;0.000054;0;203
228;405.5;0.00701;0.00173;0.000054;0;210
230;405.4;0.00701;0.00173;0.000054;0;315
232;405.2;0.00701;0.00173;0.000054;0;343
234;405;0.00701;0.00173;0.000054;0;350
236;404.9;0.00701;0.00173;0.000054;0;343
238;404.7;0.00701;0.00173;0.000054;0;350
240;404.5;0.00701;0.00173;0.000054;0;231
242;404.3;0.00701;0.00173;0.000054;0;203
244;404;0.00701;0.00173;0.000054;0;210
246;403.9;0.00701;0.00173;0.000054;0;203
248;404.1;0.00701;0.00173;0.000054;0;210
250;404.4;0.00701;0.00173;0.000054;0;294
252;404.7;0.00701;0.00173;0.000054;0;350
254;405;0.00701;0.00173;0.000054;0;350
256;405.3;0.00701;0.00173;0.000054;0;350
258;405.5;0.00701;0.00173;0.000054;0;350
260;405.7;0.00701;0.00173;0.000054;0;259
262;405.7;0.00701;0.00173;0.000054;0;203
264;405.8;0.00701;0.00173;0.000054;0;210
266;405.7;0.00701;0.00173;0.000054;0;203
268;405.7;0.00701;0.00173;0.000054;0;280
270;405.5;0.00701;0.00173;0.000054;0;343
272;405.5;0.00701;0.00173;0.000054;0;343
274;405.2;0.00701;0.00173;0.000054;0;350
276;405.1;0.00701;0.00173;0.000054;0;343
278;404.9;0.00701;0.00173;0.000054;0;294
280;404.7;0.00701;0.00173;0.000054;0;203
282;404.5;0.00701;0.00173;0.000054;0;210
284;404.3;0.00701;0.00173;0.000054;0;210
286;404.2;0.00701;0.00173;0.000054;0;210
288;404.3;0.00701;0.00173;0.000054;0;210
290;404.6;0.00701;0.00173;0.000054;0;308
292;404.9;0.00701;0.00173;0.000054;0;350
294;405.3;0.00701;0.00173;0.000054;0;343
296;405.5;0.00701;0.00173;0.000054;0.0007138;343
298;405.9;0.00701;0.00173;0.000054;0;350
300;406.1;0.00701;0.00173;0.000054;0;231
302;406.2;0.00701;0.00173;0.000054;0;210
304;406.2;0.00701;0.00173;0.000054;0;196
306;406.2;0.00701;0.00173;0.000054;0;196
308;406;0.00701;0.00173;0.000054;0;238
310;405.9;0.00701;0.00173;0.000054;0;336
312;405.9;0.00701;0.00173;0.000054;0;350
314;405.7;0.00701;0.00173;0.000054;0;343
316;405.4;0.00701;0.00173;0.000054;0;343
318;405.2;0.00701;0.00173;0.000054;0;315
320;405;0.00701;0.00173;0.000054;0;196
322;404.8;0.00701;0.00173;0.000054;0;210
324;404.6;0.00701;0.00173;0.000054;0;196
326;404.4;0.00701;0.00173;0.000054;0;210
328;404.2;0.00701;0.00173;0.000054;0;203
330;404.1;0.00701;0.00173;0.000054;0;266
332;404.3;0.00701;0.00173;0.000054;0;350
334;404.6;0.00701;0.00173;0.000054;0;336
336;405.1;0.00701;0.00173;0.000054;0;350
338;405.4;0.00701;0.00173;0.000054;0;336
340;405.6;0.00701;0.00173;0.000054;0.0012055;280
342;406;0.00701;0.00173;0.000054;0;203
344;406;0.00701;0.00173;0.000054;0;196
346;406.2;0.00701;0.00173;0.000054;0;210
348;406.3;0.00701;0.00173;0.000054;0;189
350;406.1;0.00701;0.00173;0.000054;0;350
352;406.1;0.00701;0.00173;0.000054;0;336
354;405.9;0.00701;0.00173;0.000054;0;336
356;405.7;0.00701;0.00173;0.000054;0;343
358;405.5;0.00701;0.00173;0.000054;0;336
360;405.3;0.00701;0.00173;0.000054;0;210
362;405.1;0.00701;0.00173;0.000054;0;189
364;404.9;0.00701;0.00173;0.000054;0;210
366;404.7;0.00701;0.00173;0.000054;0;189
368;404.6;0.00701;0.00173;0.000054;0;196
370;404.3;0.00701;0.00173;0.000054;0;266
372;404;0.00701;0.00173;0.000054;0;336
374;403.8;0.00701;0.00173;0.000054;0;350
376;403.7;0.00701;0.00173;0.000054;0;336
378;403.8;0.00701;0.00173;0.000054;0;350
380;404.1;0.00701;0.00173;0.000054;0;280
382;404.4;0.00701;0.00173;0.000054;0;189
384;404.8;0.00701;0.00173;0.000054;0;203
386;405.1;0.00701;0.00173;0.000054;0;189
388;405.3;0.00701;0.00173;0.000054;0;210
390;405.5;0.00701;0.00173;0.000054;0;217
392;405.5;0.00701;0.00173;0.000054;0;350
394;405.6;0.00701;0.00173;0.000054;0;329
396;405.5;0.00701;0.00173;0.000054;0;336
398;405.4;0.00701;0.00173;0.000054;0;343
400;405.4;0.00701;0.00173;0.000054;0;301
402;405.2;0.00701;0.00173;0.000054;0;210
404;405;0.00701;0.00173;0.000054;0;189
406;404.8;0.00701;0.00173;0.000054;0;210
408;404.6;0.00701;0.00173;0.000054;0;189
410;404.4;0.00701;0.00173;0.000054;0;189
412;404;0.00701;0.00173;0.000054;0;315
414;403.8;0.00701;0.00173;0.000054;0;329
416;403.7;0.00701;0.00173;0.000054;0;350
418;403.5;0.00701;0.00173;0.000054;0;329
420;403.5;0.00701;0.00173;0.000054;0;350
422;403.8;0.00701;0.00173;0.000054;0;217
424;404.1;0.00701;0.00173;0.000054;0;196
426;404.4;0.00701;0.00173;0.000054;0;203
428;404.8;0.00701;0.00173;0.000054;0;189
430;404.9;0.00701;0.00173;0.000054;0;210
432;405.1;0.00701;0.00173;0.000054;0;273
434;405.3;0.00701;0.00173;0.000054;0;350
436;405.4;0.00701;0.00173;0.000054;0;329
438;405.3;0.00701;0.00173;0.000054;0;343
440;405.3;0.00701;0.00173;0.000054;0;336
442;405.1;0.00701;0.00173;0.000054;0;238
444;404.9;0.00701;0.00173;0.000054;0;210
446;404.8;0.00701;0.00173;0.000054;0;189
448;404.5;0.00701;0.00173;0.000054;0;210
450;404.4;0.00701;0.00173;0.000054;0;189
452;404.2;0.00701;0.00173;0.000054;0;329
454;403.9;0.00701;0.00173;0.000054;0;336
456;403.7;0.00701;0.00173;0.000054;0;329
458;403.5;0.00701;0.00173;0.000054;0;350
460;403.3;0.00701;0.00173;0.000054;0;329
462;403.1;0.00701;0.00173;0.000054;0;224
464;403.1;0.00701;0.00173;0.000054;0;196
466;403.3;0.00701;0.00173;0.000054;0;203
468;403.6;0.00701;0.00173;0.000054;0;196
470;403.8;0.00701;0.00173;0.000054;0;189
472;404.2;0.00701;0.00173;0.000054;0;273
474;404.6;0.00701;0.00173;0.000054;0;329
476;404.6;0.00701;0.00173;0.000054;0;350
478;404.9;0.00701;0.00173;0.000054;0;329
480;404.9;0.00701;0.00173;0.000054;0;350
482;404.9;0.00701;0.00173;0.000054;0;245
484;404.9;0.00701;0.00173;0.000054;0;189
486;404.8;0.00701;0.00173;0.000054;0;203
488;404.6;0.00701;0.00173;0.000054;0;182
490;404.4;0.00701;0.00173;0.000054;0;210
492;404.3;0.00701;0.00173;0.000054;0;322
494;404;0.00701;0.00173;0.000054;0;350
496;403.8;0.00701;0.00173;0.000054;0;322
498;403.6;0.00701;0.00173;0.000054;0;336
500;403.2;0.00701;0.00173;0.000054;0;329
502;403.2;0.00701;0.00173;0.000054;0;189
504;402.8;0.00701;0.00173;0.000054;0;210
506;402.9;0.00701;0.00173;0.000054;0;189
508;403;0.00701;0.00173;0.000054;0;210
510;403.4;0.00701;0.00173;0.000054;0;189
512;403.6;0.00701;0.00173;0.000054;0;308
514;404;0.00701;0.00173;0.000054;0;336
516;404.2;0.00701;0.00173;0.000054;0;329
518;404.4;0.00701;0.00173;0.000054;0;350
520;404.7;0.00701;0.00173;0.000054;0;322
522;404.7;0.00701;0.00173;0.000054;0;238
524;404.8;0.00701;0.00173;0.000054;0;182
526;404.7;0.00701;0.00173;0.000054;0;210
528;404.6;0.00701;0.00173;0.000054;0;182
530;404.4;0.00701;0.00173;0.000054;0;196
532;404.4;0.00701;0.00173;0.000054;0;210
534;404.1;0.00701;0.00173;0.000054;0;329
536;403.9;0.00701;0.00173;0.000054;0;350
538;403.7;0.00701;0.00173;0.000054;0;329
540;403.6;0.00701;0.00173;0.000054;0;350
542;403.4;0.00701;0.00173;0.000054;0;315
544;403.2;0.00701;0.00173;0.000054;0;196
546;403;0.00701;0.00173;0.000054;0;203
548;402.8;0.00701;0.00173;0.000054;0;189
550;402.8;0.00701;0.00173;0.000054;0;210
552;403.1;0.00701;0.00173;0.000054;0;196
554;403.4;0.00701;0.00173;0.000054;0;210
556;403.7;0.00701;0.00173;0.000054;0;245
558;404;0.00701;0.00173;0.000054;0;343
560;404.3;0.00701;0.00173;0.000054;0;343
562;404.3;0.00701;0.00173;0.000054;0;329
564;404.5;0.00701;0.00173;0.000054;0;350
566;404.5;0.00701;0.00173;0.000054;0;280
568;404.5;0.00701;0.00173;0.000054;0;210
570;404.4;0.00701;0.00173;0.000054;0;189
572;404.4;0.00701;0.00173;0.000054;0;203
574;404.1;0.00701;0.00173;0.000054;0;196
576;403.9;0.00701;0.00173;0.000054;0;245
578;403.7;0.00701;0.00173;0.000054;0;350
580;403.6;0.00701;0.00173;0.000054;0;329
582;403.5;0.00701;0.00173;0.000054;0;350
584;403.2;0.00701;0.00173;0.000054;0;336
586;403.1;0.00701;0.00173;0.000054;0;266
588;403;0.00701;0.00173;0.000054;0;203
590;403.1;0.00701;0.00173;0.000054;0;196
592;403.4;0.00701;0.00173;0.000054;0;210
594;403.7;0.00701;0.00173;0.000054;0;189
596;404;0.00701;0.00173;0.000054;0;322
598;404.3;0.00701;0.00173;0.000054;0;329
600;404.5;0.00701;0.00173;0.000054;0;336
602;404.7;0.00701;0.00173;0.000054;0;343
604;404.8;0.00701;0.00173;0.000054;0;329
606;404.7;0.00701;0.00173;0.000054;0;210
608;404.8;0.00701;0.00173;0.000054;0;189
610;404.6;0.00701;0.00173;0.000054;0;210
612;404.6;0.00701;0.00173;0.000054;0;189
614;404.5;0.00701;0.00173;0.000054;0;252
616;404.3;0.00701;0.00173;0.000054;0;336
618;404.1;0.00701;0.00173;0.000054;0;329
620;403.8;0.00701;0.00173;0.000054;0;350
622;403.7;0.00701;0.00173;0.000054;0;322
624;403.4;0.00701;0.00173;0.000054;0;308
626;403.3;0.00701;0.00173;0.000054;0;189
628;403;0.00701;0.00173;0.000054;0;203
630;402.9;0.00701;0.00173;0.000054;0;196
632;403.1;0.00701;0.00173;0.000054;0;238
634;403.3;0.00701;0.00173;0.000054;0;350
636;403.6;0.00701;0.00173;0.000054;0;329
638;403.9;0.00701;0.00173;0.000054;0;350
640;404.2;0.00701;0.00173;0.000054;0;329
642;404.5;0.00701;0.00173;0.000054;0;301
644;404.5;0.00701;0.00173;0.000054;0;196
646;404.7;0.00701;0.00173;0.000054;0;189
648;404.7;0.00701;0.00173;0.000054;0;210
650;404.6;0.00701;0.00173;0.000054;0;189
652;404.6;0.00701;0.00173;0.000054;0;210
654;404.5;0.00701;0.00173;0.000054;0;308
656;404.4;0.00701;0.00173;0.000054;0;350
658;404.1;0.00701;0.00173;0.000054;0;329
660;403.9;0.00701;0.00173;0.000054;0;329
662;403.7;0.00701;0.00173;0.000054;0;336
664;403.4;0.00701;0.00173;0.000054;0;189
666;403.3;0.00701;0.00173;0.000054;0;210
668;403;0.00701;0.00173;0.000054;0;189
670;402.8;0.00701;0.00173;0.000054;0;210
672;402.7;0.00701;0.00173;0.000054;0;189
674;402.8;0.00701;0.00173;0.000054;0;266
676;403;0.00701;0.00173;0.000054;0;336
678;403.2;0.00701;0.00173;0.000054;0;322
680;403.6;0.00701;0.00173;0.000054;0;350
682;403.9;0.00701;0.00173;0.000054;0;322
684;404.2;0.00701;0.00173;0.000054;0;280
686;404.4;0.00701;0.00173;0.000054;0;182
688;404.5;0.00701;0.00173;0.000054;0;210
690;404.6;0.00701;0.00173;0.000054;0;189
692;404.6;0.00701;0.00173;0.000054;0;217
694;404.6;0.00701;0.00173;0.000054;0;343
696;404.5;0.00701;0.00173;0.000054;0;329
698;404.3;0.00701;0.00173;0.000054;0;350
700;404.1;0.00701;0.00173;0.000054;0;322
702;403.8;0.00701;0.00173;0.000054;0;322
704;403.7;0.00701;0.00173;0.000054;0;182
706;403.5;0.00701;0.00173;0.000054;0;196
708;403.3;0.00701;0.00173;0.000054;0;196
710;403;0.00701;0.00173;0.000054;0;182
712;402.8;0.00701;0.00173;0.000054;0;231
714;402.6;0.00701;0.00173;0.000054;0;322
716;402.4;0.00701;0.00173;0.000054;0;350
718;402.4;0.00701;0.00173;0.000054;0;322
720;402.6;0.00701;0.00173;0.000054;0;350
722;402.8;0.00701;0.00173;0.000054;0;280
724;403.1;0.00701;0.00173;0.000054;0;196
726;403.4;0.00701;0.00173;0.000054;0;203
728;403.7;0.00701;0.00173;0.000054;0;189
730;403.9;0.00701;0.00173;0.000054;0;210
732;404;0.00701;0.00173;0.000054;0;189
734;404.1;0.00701;0.00173;0.000054;0;210
736;404.1;0.00701;0.00173;0.000054;0;308
738;404.1;0.00701;0.00173;0.000054;0;343
740;404;0.00701;0.00173;0.000054;0;336
742;403.9;0.00701;0.00173;0.000054;0;322
744;403.7;0.00701;0.00173;0.000054;0;350
746;403.5;0.00701;0.00173;0.000054;0;196
748;403.3;0.00701;0.00173;0.000054;0;210
750;403.1;0.00701;0.00173;0.000054;0;182
752;402.9;0.00701;0.00173;0.000054;0;210
754;402.7;0.00701;0.00173;0.000054;0;182
756;402.5;0.00701;0.00173;0.000054;0;196
758;402.3;0.00701;0.00173;0.000054;0;287
760;402.1;0.00701;0.00173;0.000054;0;329
762;402.3;0.00701;0.00173;0.000054;0;350
764;402.6;0.00701;0.00173;0.000054;0;329
766;402.9;0.00701;0.00173;0.000054;0;350
768;403.3;0.00701;0.00173;0.000054;0;245
770;403.6;0.00701;0.00173;0.000054;0;196
772;403.8;0.00701;0.00173;0.000054;0;196
774;404;0.00701;0.00173;0.000054;0;189
776;404.1;0.00701;0.00173;0.000054;0;252
778;404.1;0.00701;0.00173;0.000054;0;322
780;404.1;0.00701;0.00173;0.000054;0;350
782;404.1;0.00701;0.00173;0.000054;0;322
784;404;0.00701;0.00173;0.000054;0;343
786;403.8;0.00701;0.00173;0.000054;0;287
788;403.7;0.00701;0.00173;0.000054;0;196
790;403.5;0.00701;0.00173;0.000054;0;210
792;403.3;0.00701;0.00173;0.000054;0;189
794;403.1;0.00701;0.00173;0.000054;0;210
796;402.9;0.00701;0.00173;0.000054;0;294
798;402.7;0.00701;0.00173;0.000054;0;350
800;402.5;0.00701;0.00173;0.000054;0;329
802;402.3;0.00701;0.00173;0.000054;0;336
804;402.3;0.00701;0.00173;0.000054;0;343
806;402.5;0.00701;0.00173;0.000054;0;224
808;402.8;0.00701;0.00173;0.000054;0;210
810;403.1;0.00701;0.00173;0.000054;0;189
812;403.4;0.00701;0.00173;0.000054;0;210
814;403.6;0.00701;0.00173;0.000054;0;189
816;403.8;0.00701;0.00173;0.000054;0;189
818;403.9;0.00701;0.00173;0.000054;0;203
820;403.9;0.00701;0.00173;0.000054;0;203
822;403.9;0.00701;0.00173;0.000054;0;350
824;403.8;0.00701;0.00173;0.000054;0;329
826;403.7;0.00701;0.00173;0.000054;0;350
828;403.6;0.00701;0.00173;0.000054;0;322
830;403.4;0.00701;0.00173;0.000054;0;343
832;403.3;0.00701;0.00173;0.000054;0;196
834;403.1;0.00701;0.00173;0.000054;0;189
836;402.8;0.00701;0.00173;0.000054;0;210
838;402.6;0.00701;0.00173;0.000054;0;189
840;402.3;0.00701;0.00173;0.000054;0;210
842;402.1;0.00701;0.00173;0.000054;0;308
844;402.1;0.00701;0.00173;0.000054;0;343
846;402.2;0.00701;0.00173;0.000054;0;336
848;402.6;0.00701;0.00173;0.000054;0;329
850;402.9;0.00701;0.00173;0.000054;0;350
852;403.2;0.00701;0.00173;0.000054;0;217
854;403.4;0.00701;0.00173;0.000054;0;210
856;403.6;0.00701;0.00173;0.000054;0;189
858;403.8;0.00701;0.00173;0.000054;0;203
860;403.8;0.00701;0.00173;0.000054;0;189
862;403.9;0.00701;0.00173;0.000054;0;217
864;403.7;0.00701;0.00173;0.000054;0;350
866;403.7;0.00701;0.00173;0.000054;0;329
868;403.6;0.00701;0.00173;0.000054;0;350
870;403.4;0.00701;0.00173;0.000054;0;329
872;403.3;0.00701;0.00173;0.000054;0;308
874;403.1;0.00701;0.00173;0.000054;0;189
876;402.9;0.00701;0.00173;0.000054;0;189
878;402.6;0.00701;0.00173;0.000054;0;203
880;402.5;0.00701;0.00173;0.000054;0;189
882;402.3;0.00701;0.00173;0.000054;0;210
884;402;0.00701;0.00173;0.000054;0;301
886;401.8;0.00701;0.00173;0.000054;0;350
888;401.9;0.00701;0.00173;0.000054;0;336
890;402.1;0.00701;0.00173;0.000054;0;336
892;402.4;0.00701;0.00173;0.000054;0;343
894;402.7;0.00701;0.00173;0.000054;0;203
896;403;0.00701;0.00173;0.000054;0;210
898;403.3;0.00701;0.00173;0.000054;0;189
900;403.5;0.00701;0.00173;0.000054;0;210
902;403.6;0.00701;0.00173;0.000054;0;189
904;403.7;0.00701;0.00173;0.000054;0;196
906;403.7;0.00701;0.00173;0.000054;0;203
908;403.6;0.00701;0.00173;0.000054;0;308
910;403.5;0.00701;0.00173;0.000054;0;350
912;403.4;0.00701;0.00173;0.000054;0;329
914;403.2;0.00701;0.00173;0.000054;0;350
916;403;0.00701;0.00173;0.000054;0;329
918;402.8;0.00701;0.00173;0.000054;0;217
920;402.6;0.00701;0.00173;0.000054;0;196
922;402.4;0.00701;0.00173;0.000054;0;189
924;402.2;0.00701;0.00173;0.000054;0;210
926;401.9;0.00701;0.00173;0.000054;0;189
928;401.9;0.00701;0.00173;0.000054;0;280
930;402;0.00701;0.00173;0.000054;0;329
932;402.3;0.00701;0.00173;0.000054;0;336
934;402.6;0.00701;0.00173;0.000054;0;336
936;402.8;0.00701;0.00173;0.000054;0;329
938;403.1;0.00701;0.00173;0.000054;0;266
940;403.2;0.00701;0.00173;0.000054;0;189
942;403.4;0.00701;0.00173;0.000054;0;210
944;403.4;0.00701;0.00173;0.000054;0;182
946;403.4;0.00701;0.00173;0.000054;0;203
948;403.4;0.00701;0.00173;0.000054;0;245
950;403.3;0.00701;0.00173;0.000054;0;329
952;403.1;0.00701;0.00173;0.000054;0;350
954;402.9;0.00701;0.00173;0.000054;0;329
956;402.7;0.00701;0.00173;0.000054;0;350
958;402.6;0.00701;0.00173;0.000054;0;273
960;402.4;0.00701;0.00173;0.000054;0;210
962;402.1;0.00701;0.00173;0.000054;0;182
964;401.9;0.00701;0.00173;0.000054;0;203
966;401.8;0.00701;0.00173;0.000054;0;238
